#Wavelength in nm, Average Reflectance 350 to 2500nm by 1nm, Standard Deviation: N = 25, Decimal Hours UT: ,18.1493
     350 0.0499642 0.00373585
     351 0.0499532 0.00372966
     352 0.0503841 0.00370056
     353 0.0507505 0.00366983
     354 0.0509066 0.00364628
     355 0.0510909 0.00363613
     356 0.0515534 0.00361609
     357 0.0518358 0.00358717
     358 0.0521402 0.00356161
     359 0.0526543 0.00354462
     360 0.0528089 0.00350086
     361 0.0530396 0.00350193
     362 0.0533313 0.00349827
     363 0.0537453 0.00344570
     364 0.0541191 0.00344544
     365 0.0544651 0.00346366
     366 0.0547911 0.00347786
     367 0.0551611 0.00348260
     368 0.0556158 0.00349699
     369 0.0560005 0.00350252
     370 0.0563290 0.00349911
     371 0.0568534 0.00351258
     372 0.0573450 0.00353799
     373 0.0579221 0.00355689
     374 0.0583367 0.00354571
     375 0.0589870 0.00358452
     376 0.0596116 0.00362946
     377 0.0602111 0.00367462
     378 0.0608373 0.00372136
     379 0.0613915 0.00375610
     380 0.0620671 0.00378092
     381 0.0627256 0.00379528
     382 0.0634678 0.00382368
     383 0.0642311 0.00386188
     384 0.0648903 0.00388566
     385 0.0655202 0.00389214
     386 0.0662806 0.00390352
     387 0.0669459 0.00392413
     388 0.0676404 0.00393838
     389 0.0683253 0.00392988
     390 0.0688893 0.00393751
     391 0.0696025 0.00394472
     392 0.0702419 0.00394178
     393 0.0709307 0.00395276
     394 0.0715791 0.00397183
     395 0.0721616 0.00395995
     396 0.0728498 0.00393103
     397 0.0733692 0.00390103
     398 0.0739232 0.00389058
     399 0.0744726 0.00390161
     400 0.0750641 0.00392752
     401 0.0754399 0.00393127
     402 0.0758356 0.00392152
     403 0.0763418 0.00392375
     404 0.0768219 0.00394503
     405 0.0774119 0.00396668
     406 0.0778191 0.00396387
     407 0.0783234 0.00396896
     408 0.0789020 0.00400552
     409 0.0794888 0.00402720
     410 0.0800198 0.00404666
     411 0.0806189 0.00407596
     412 0.0811071 0.00409313
     413 0.0816693 0.00411801
     414 0.0822566 0.00415204
     415 0.0826706 0.00418101
     416 0.0832658 0.00420253
     417 0.0838565 0.00422432
     418 0.0846856 0.00426134
     419 0.0853676 0.00429166
     420 0.0860379 0.00432812
     421 0.0865552 0.00435627
     422 0.0871757 0.00438392
     423 0.0881443 0.00442241
     424 0.0887348 0.00445663
     425 0.0894747 0.00450021
     426 0.0902440 0.00453627
     427 0.0911193 0.00457648
     428 0.0919680 0.00461990
     429 0.0928832 0.00466403
     430 0.0937761 0.00469760
     431 0.0945961 0.00473664
     432 0.0955825 0.00478772
     433 0.0965664 0.00483575
     434 0.0974018 0.00486831
     435 0.0983982 0.00491419
     436 0.0992980 0.00496039
     437 0.100126 0.00500354
     438 0.101042 0.00504221
     439 0.101879 0.00508159
     440 0.102697 0.00512424
     441 0.103631 0.00517182
     442 0.104507 0.00521133
     443 0.105375 0.00525227
     444 0.106227 0.00529515
     445 0.107079 0.00533685
     446 0.107763 0.00537100
     447 0.108564 0.00541141
     448 0.109375 0.00545117
     449 0.110023 0.00547813
     450 0.110581 0.00551198
     451 0.111312 0.00555534
     452 0.111913 0.00558056
     453 0.112557 0.00561471
     454 0.113189 0.00565233
     455 0.113701 0.00568531
     456 0.114202 0.00571627
     457 0.114712 0.00574161
     458 0.115267 0.00577011
     459 0.115772 0.00580210
     460 0.116116 0.00583008
     461 0.116546 0.00585938
     462 0.116974 0.00588457
     463 0.117408 0.00590827
     464 0.117785 0.00593241
     465 0.118357 0.00596944
     466 0.118734 0.00599830
     467 0.119139 0.00602766
     468 0.119523 0.00604730
     469 0.119870 0.00606747
     470 0.120235 0.00609591
     471 0.120594 0.00611936
     472 0.120960 0.00613778
     473 0.121428 0.00616323
     474 0.121775 0.00619090
     475 0.122205 0.00621656
     476 0.122685 0.00624790
     477 0.123124 0.00627930
     478 0.123493 0.00629901
     479 0.123791 0.00631451
     480 0.124253 0.00634200
     481 0.124695 0.00637182
     482 0.125242 0.00640025
     483 0.125812 0.00643646
     484 0.126409 0.00647420
     485 0.127187 0.00651111
     486 0.127827 0.00654687
     487 0.128449 0.00658322
     488 0.129049 0.00661581
     489 0.129746 0.00664936
     490 0.130398 0.00668593
     491 0.131063 0.00672240
     492 0.131717 0.00675254
     493 0.132399 0.00678451
     494 0.133199 0.00682376
     495 0.134114 0.00686903
     496 0.134885 0.00690575
     497 0.135652 0.00694593
     498 0.136424 0.00698629
     499 0.137275 0.00702717
     500 0.138084 0.00705989
     501 0.138909 0.00709855
     502 0.139745 0.00713860
     503 0.140644 0.00717871
     504 0.141530 0.00722661
     505 0.142379 0.00726827
     506 0.143306 0.00731058
     507 0.144211 0.00735598
     508 0.145087 0.00739457
     509 0.146050 0.00743537
     510 0.146980 0.00747553
     511 0.147813 0.00751322
     512 0.148688 0.00755252
     513 0.149540 0.00759048
     514 0.150495 0.00763469
     515 0.151438 0.00767931
     516 0.152337 0.00772268
     517 0.153227 0.00776534
     518 0.154260 0.00781271
     519 0.155218 0.00785089
     520 0.156071 0.00788703
     521 0.157028 0.00793426
     522 0.157868 0.00796898
     523 0.158676 0.00800175
     524 0.159653 0.00804581
     525 0.160574 0.00809105
     526 0.161532 0.00813705
     527 0.162410 0.00817633
     528 0.163260 0.00821255
     529 0.164136 0.00825172
     530 0.165020 0.00828870
     531 0.165941 0.00832827
     532 0.166736 0.00836478
     533 0.167556 0.00840207
     534 0.168411 0.00843991
     535 0.169281 0.00847714
     536 0.170172 0.00851528
     537 0.171053 0.00855894
     538 0.171793 0.00859381
     539 0.172605 0.00862827
     540 0.173464 0.00866938
     541 0.174296 0.00870994
     542 0.175100 0.00875027
     543 0.175935 0.00879287
     544 0.176883 0.00883440
     545 0.177620 0.00886867
     546 0.178326 0.00890532
     547 0.179208 0.00894787
     548 0.179893 0.00898061
     549 0.180717 0.00901604
     550 0.181508 0.00904583
     551 0.182175 0.00907760
     552 0.183036 0.00911683
     553 0.183688 0.00913997
     554 0.184424 0.00916273
     555 0.185226 0.00919487
     556 0.186020 0.00923332
     557 0.186732 0.00927088
     558 0.187513 0.00930801
     559 0.188360 0.00935591
     560 0.189001 0.00940247
     561 0.189664 0.00945606
     562 0.190388 0.00951139
     563 0.191044 0.00956410
     564 0.191701 0.00961800
     565 0.192392 0.00967216
     566 0.193058 0.00970852
     567 0.193830 0.00974602
     568 0.194388 0.00977403
     569 0.194997 0.00979420
     570 0.195765 0.00981278
     571 0.196344 0.00981481
     572 0.196974 0.00981744
     573 0.197845 0.00983909
     574 0.198230 0.00984253
     575 0.198875 0.00986658
     576 0.199385 0.00989575
     577 0.199905 0.00993569
     578 0.200522 0.00998635
     579 0.200982 0.0100332
     580 0.201372 0.0100865
     581 0.201881 0.0101449
     582 0.202223 0.0101904
     583 0.202529 0.0102287
     584 0.203065 0.0102678
     585 0.203391 0.0102852
     586 0.203872 0.0102979
     587 0.204200 0.0102866
     588 0.204456 0.0102730
     589 0.204974 0.0102785
     590 0.205345 0.0102838
     591 0.206034 0.0103136
     592 0.206324 0.0103277
     593 0.206707 0.0103526
     594 0.206892 0.0103794
     595 0.207231 0.0104195
     596 0.207614 0.0104603
     597 0.207845 0.0104908
     598 0.208277 0.0105386
     599 0.208580 0.0105737
     600 0.208899 0.0106028
     601 0.209252 0.0106306
     602 0.209469 0.0106472
     603 0.209830 0.0106625
     604 0.210202 0.0106726
     605 0.210521 0.0106836
     606 0.210804 0.0106904
     607 0.211037 0.0106979
     608 0.211362 0.0107175
     609 0.211698 0.0107393
     610 0.212016 0.0107652
     611 0.212161 0.0107888
     612 0.212409 0.0108233
     613 0.212834 0.0108611
     614 0.212952 0.0108807
     615 0.213361 0.0109145
     616 0.213545 0.0109328
     617 0.213716 0.0109516
     618 0.213995 0.0109760
     619 0.214280 0.0109996
     620 0.214391 0.0110174
     621 0.214681 0.0110422
     622 0.214966 0.0110634
     623 0.215076 0.0110754
     624 0.215334 0.0110958
     625 0.215560 0.0111144
     626 0.215826 0.0111348
     627 0.215843 0.0111433
     628 0.216098 0.0111654
     629 0.216315 0.0111849
     630 0.216507 0.0112007
     631 0.216798 0.0112246
     632 0.216964 0.0112423
     633 0.217173 0.0112589
     634 0.217417 0.0112706
     635 0.217623 0.0112950
     636 0.217736 0.0113163
     637 0.217873 0.0113272
     638 0.217904 0.0113293
     639 0.218081 0.0113436
     640 0.218225 0.0113601
     641 0.218592 0.0113867
     642 0.218684 0.0113949
     643 0.218946 0.0114144
     644 0.219120 0.0114339
     645 0.219207 0.0114473
     646 0.219337 0.0114632
     647 0.219573 0.0114822
     648 0.219690 0.0114917
     649 0.219854 0.0115089
     650 0.220022 0.0115262
     651 0.220292 0.0115475
     652 0.220090 0.0115450
     653 0.220250 0.0115580
     654 0.220531 0.0115792
     655 0.220676 0.0115988
     656 0.220950 0.0116290
     657 0.220787 0.0116278
     658 0.221241 0.0116534
     659 0.221360 0.0116645
     660 0.221608 0.0116832
     661 0.221721 0.0116953
     662 0.221862 0.0117105
     663 0.221864 0.0117217
     664 0.222074 0.0117416
     665 0.222190 0.0117570
     666 0.222329 0.0117761
     667 0.222506 0.0117961
     668 0.222672 0.0118165
     669 0.222745 0.0118295
     670 0.222892 0.0118402
     671 0.223078 0.0118593
     672 0.223205 0.0118784
     673 0.223499 0.0119072
     674 0.223395 0.0119165
     675 0.223557 0.0119335
     676 0.224033 0.0119656
     677 0.224172 0.0119843
     678 0.224217 0.0120009
     679 0.224250 0.0120146
     680 0.224598 0.0120426
     681 0.224659 0.0120560
     682 0.224751 0.0120694
     683 0.225083 0.0120950
     684 0.225068 0.0121017
     685 0.225268 0.0121191
     686 0.225300 0.0121225
     687 0.225746 0.0121578
     688 0.225933 0.0121978
     689 0.226235 0.0122139
     690 0.226471 0.0122258
     691 0.226446 0.0122297
     692 0.226608 0.0122397
     693 0.226926 0.0122528
     694 0.227000 0.0122541
     695 0.227157 0.0122628
     696 0.227320 0.0122653
     697 0.227582 0.0122741
     698 0.227751 0.0122806
     699 0.227959 0.0122915
     700 0.228244 0.0123070
     701 0.228655 0.0123257
     702 0.228786 0.0123275
     703 0.228912 0.0123341
     704 0.229281 0.0123461
     705 0.229380 0.0123470
     706 0.229683 0.0123663
     707 0.229799 0.0123661
     708 0.230163 0.0123798
     709 0.230529 0.0123967
     710 0.230719 0.0124061
     711 0.230998 0.0124170
     712 0.231279 0.0124287
     713 0.231535 0.0124410
     714 0.231912 0.0124594
     715 0.232149 0.0124666
     716 0.232404 0.0124729
     717 0.232735 0.0124839
     718 0.232986 0.0124956
     719 0.233391 0.0125110
     720 0.233800 0.0125267
     721 0.234163 0.0125485
     722 0.234436 0.0125696
     723 0.234670 0.0125790
     724 0.234929 0.0125832
     725 0.235427 0.0126125
     726 0.235747 0.0126251
     727 0.235985 0.0126343
     728 0.236345 0.0126565
     729 0.236739 0.0126784
     730 0.237025 0.0126928
     731 0.237233 0.0127064
     732 0.237449 0.0127259
     733 0.237874 0.0127466
     734 0.238258 0.0127715
     735 0.238573 0.0127980
     736 0.238692 0.0128059
     737 0.239152 0.0128294
     738 0.239592 0.0128586
     739 0.239777 0.0128797
     740 0.240229 0.0128961
     741 0.240462 0.0129070
     742 0.240708 0.0129274
     743 0.241127 0.0129595
     744 0.241358 0.0129725
     745 0.241743 0.0129958
     746 0.242182 0.0130266
     747 0.242444 0.0130488
     748 0.242656 0.0130681
     749 0.242890 0.0130867
     750 0.243275 0.0131121
     751 0.243602 0.0131374
     752 0.243985 0.0131620
     753 0.244254 0.0131807
     754 0.244595 0.0132065
     755 0.244849 0.0132178
     756 0.245049 0.0132327
     757 0.245417 0.0132653
     758 0.245791 0.0132995
     759 0.246008 0.0133192
     760 0.246245 0.0133445
     761 0.246577 0.0133876
     762 0.246980 0.0133701
     763 0.247345 0.0133868
     764 0.247602 0.0134104
     765 0.248058 0.0134327
     766 0.248307 0.0134532
     767 0.248536 0.0134708
     768 0.248847 0.0134930
     769 0.249030 0.0135121
     770 0.249291 0.0135300
     771 0.249508 0.0135479
     772 0.249902 0.0135768
     773 0.250259 0.0135974
     774 0.250539 0.0136148
     775 0.250832 0.0136385
     776 0.251150 0.0136668
     777 0.251330 0.0136776
     778 0.251558 0.0136965
     779 0.251951 0.0137216
     780 0.252188 0.0137288
     781 0.252369 0.0137513
     782 0.252708 0.0137774
     783 0.253044 0.0137977
     784 0.253311 0.0138203
     785 0.253627 0.0138416
     786 0.253876 0.0138547
     787 0.254090 0.0138673
     788 0.254407 0.0138985
     789 0.254669 0.0139198
     790 0.254830 0.0139326
     791 0.255067 0.0139511
     792 0.255289 0.0139628
     793 0.255482 0.0139781
     794 0.255694 0.0139979
     795 0.256027 0.0140220
     796 0.256240 0.0140342
     797 0.256377 0.0140515
     798 0.256584 0.0140766
     799 0.256763 0.0140882
     800 0.256941 0.0141041
     801 0.257127 0.0141228
     802 0.257325 0.0141399
     803 0.257494 0.0141474
     804 0.257663 0.0141644
     805 0.257852 0.0141861
     806 0.258026 0.0142029
     807 0.258280 0.0142209
     808 0.258342 0.0142227
     809 0.258501 0.0142328
     810 0.258727 0.0142574
     811 0.258856 0.0142771
     812 0.259029 0.0142915
     813 0.259168 0.0142979
     814 0.259288 0.0143056
     815 0.259447 0.0143157
     816 0.259659 0.0143283
     817 0.259664 0.0143319
     818 0.259595 0.0143394
     819 0.259548 0.0143361
     820 0.259652 0.0143493
     821 0.260028 0.0143908
     822 0.260072 0.0143944
     823 0.260021 0.0143871
     824 0.260070 0.0143913
     825 0.260259 0.0144168
     826 0.260369 0.0144471
     827 0.260469 0.0144661
     828 0.260533 0.0144728
     829 0.260541 0.0144759
     830 0.260661 0.0144895
     831 0.260725 0.0144962
     832 0.260564 0.0144905
     833 0.260625 0.0145081
     834 0.260676 0.0145125
     835 0.260742 0.0145227
     836 0.260796 0.0145436
     837 0.260884 0.0145645
     838 0.260863 0.0145674
     839 0.260822 0.0145642
     840 0.260855 0.0145714
     841 0.260778 0.0145910
     842 0.260926 0.0146118
     843 0.261012 0.0146202
     844 0.261076 0.0146301
     845 0.261280 0.0146556
     846 0.260987 0.0146522
     847 0.260749 0.0146492
     848 0.260832 0.0146651
     849 0.260930 0.0146994
     850 0.260993 0.0147066
     851 0.260999 0.0146881
     852 0.260876 0.0146753
     853 0.260953 0.0146890
     854 0.261003 0.0147025
     855 0.260963 0.0147045
     856 0.260716 0.0146911
     857 0.260625 0.0146960
     858 0.260924 0.0147311
     859 0.260874 0.0147462
     860 0.260756 0.0147422
     861 0.260607 0.0147451
     862 0.260849 0.0147715
     863 0.260877 0.0147807
     864 0.260785 0.0147893
     865 0.260851 0.0147961
     866 0.260676 0.0147857
     867 0.260861 0.0148043
     868 0.260710 0.0148166
     869 0.260596 0.0148122
     870 0.260601 0.0148085
     871 0.260706 0.0148253
     872 0.260768 0.0148330
     873 0.260858 0.0148455
     874 0.260813 0.0148551
     875 0.260522 0.0148520
     876 0.260568 0.0148707
     877 0.260556 0.0148767
     878 0.260672 0.0148904
     879 0.260802 0.0149236
     880 0.260756 0.0149151
     881 0.260792 0.0149272
     882 0.260801 0.0149379
     883 0.260860 0.0149511
     884 0.260892 0.0149621
     885 0.260936 0.0149724
     886 0.260946 0.0149834
     887 0.260965 0.0149952
     888 0.260991 0.0150045
     889 0.260999 0.0150105
     890 0.261020 0.0150162
     891 0.260963 0.0150190
     892 0.260948 0.0150241
     893 0.260952 0.0150260
     894 0.260908 0.0150260
     895 0.260892 0.0150294
     896 0.260866 0.0150329
     897 0.260886 0.0150382
     898 0.260897 0.0150431
     899 0.260900 0.0150513
     900 0.260925 0.0150626
     901 0.260984 0.0150730
     902 0.261053 0.0150821
     903 0.261103 0.0150904
     904 0.261182 0.0151046
     905 0.261267 0.0151200
     906 0.261305 0.0151331
     907 0.261327 0.0151442
     908 0.261330 0.0151528
     909 0.261396 0.0151665
     910 0.261459 0.0151807
     911 0.261514 0.0151955
     912 0.261545 0.0152101
     913 0.261628 0.0152218
     914 0.261750 0.0152377
     915 0.261841 0.0152533
     916 0.261938 0.0152686
     917 0.262089 0.0152864
     918 0.262250 0.0153082
     919 0.262415 0.0153283
     920 0.262455 0.0153373
     921 0.262540 0.0153514
     922 0.262606 0.0153623
     923 0.262692 0.0153744
     924 0.262673 0.0153843
     925 0.262625 0.0153904
     926 0.262517 0.0154056
     927 0.262361 0.0154282
     928 0.262129 0.0154565
     929 0.261803 0.0155115
     930 0.261503 0.0156115
     931 0.261226 0.0157410
     932 0.260929 0.0158707
     933 0.260722 0.0160063
     934 0.260568 0.0161373
     935 0.260432 0.0162476
     936 0.260355 0.0163361
     937 0.260362 0.0163948
     938 0.260395 0.0164207
     939 0.260493 0.0164309
     940 0.260709 0.0164175
     941 0.260877 0.0163667
     942 0.261166 0.0163390
     943 0.261376 0.0163291
     944 0.261541 0.0163287
     945 0.261643 0.0163408
     946 0.261807 0.0163588
     947 0.261910 0.0163774
     948 0.262033 0.0163992
     949 0.262228 0.0164319
     950 0.262372 0.0164376
     951 0.262560 0.0164310
     952 0.262733 0.0164302
     953 0.262873 0.0164099
     954 0.263157 0.0163827
     955 0.263448 0.0163467
     956 0.263795 0.0163042
     957 0.264133 0.0162768
     958 0.264438 0.0162553
     959 0.264795 0.0162308
     960 0.265110 0.0161944
     961 0.265465 0.0161729
     962 0.265693 0.0161558
     963 0.266149 0.0161575
     964 0.266340 0.0161437
     965 0.266567 0.0161327
     966 0.266840 0.0161419
     967 0.266997 0.0161552
     968 0.267143 0.0161677
     969 0.267368 0.0161865
     970 0.267579 0.0162069
     971 0.267785 0.0162322
     972 0.268038 0.0162642
     973 0.268328 0.0162930
     974 0.268337 0.0162946
     975 0.268712 0.0163199
     976 0.269097 0.0163559
     977 0.269349 0.0163799
     978 0.269533 0.0163910
     979 0.269894 0.0164151
     980 0.270048 0.0164341
     981 0.270263 0.0164636
     982 0.270469 0.0164930
     983 0.270641 0.0165137
     984 0.270825 0.0165297
     985 0.271092 0.0165532
     986 0.271134 0.0165659
     987 0.271191 0.0165764
     988 0.271311 0.0165942
     989 0.271478 0.0166233
     990 0.271523 0.0166392
     991 0.271740 0.0166583
     992 0.271781 0.0166600
     993 0.271852 0.0166662
     994 0.272034 0.0166873
     995 0.272153 0.0166981
     996 0.272327 0.0167177
     997 0.272535 0.0167375
     998 0.272619 0.0167509
     999 0.272730 0.0167623
    1000 0.272811 0.0167676
    1001 0.272938 0.0167765
    1002 0.273077 0.0167851
    1003 0.273279 0.0167978
    1004 0.273455 0.0168032
    1005 0.273535 0.0167964
    1006 0.273666 0.0168037
    1007 0.273823 0.0168096
    1008 0.273991 0.0168161
    1009 0.274181 0.0168229
    1010 0.274345 0.0168282
    1011 0.274584 0.0168392
    1012 0.274803 0.0168505
    1013 0.274989 0.0168589
    1014 0.275077 0.0168586
    1015 0.275177 0.0168594
    1016 0.275294 0.0168619
    1017 0.275450 0.0168652
    1018 0.275542 0.0168635
    1019 0.275657 0.0168627
    1020 0.275770 0.0168622
    1021 0.275797 0.0168691
    1022 0.276045 0.0168628
    1023 0.276003 0.0168533
